          E(MeV)dE/dx(MeV-cm2/g)
                             LAA             LMD            LMDL
          proton
           total
      1.0000E-03      3.0219E+01      5.0327E+00      3.0998E+01
      1.2589E-03      3.3907E+01      5.6797E+00      3.4785E+01
      1.5849E-03      3.8044E+01      6.4192E+00      3.9035E+01
      1.9953E-03      4.2686E+01      7.2682E+00      4.3807E+01
      2.5119E-03      4.7895E+01      8.2478E+00      4.9164E+01
      3.1623E-03      5.3739E+01      9.3852E+00      5.5180E+01
      3.9811E-03      6.0296E+01      1.0715E+01      6.1937E+01
      5.0119E-03      6.7653E+01      1.2284E+01      6.9528E+01
      6.3096E-03      7.5908E+01      1.4153E+01      7.8060E+01
      7.9433E-03      8.5170E+01      1.6401E+01      8.7653E+01
      1.0000E-02      9.5562E+01      1.9139E+01      9.8444E+01
      1.2589E-02      1.0722E+02      2.2515E+01      1.1059E+02
      1.5849E-02      1.2031E+02      2.6733E+01      1.2428E+02
      1.9953E-02      1.3499E+02      3.2071E+01      1.3972E+02
      2.5119E-02      1.5146E+02      3.8918E+01      1.5715E+02
      3.1623E-02      1.6994E+02      4.7810E+01      1.7688E+02
      3.9811E-02      1.9067E+02      5.9497E+01      1.9924E+02
      5.0119E-02      2.1394E+02      7.5024E+01      2.2467E+02
      6.3096E-02      2.4004E+02      9.5856E+01      2.5368E+02
      7.9433E-02      2.6933E+02      1.2405E+02      2.8691E+02
      1.0000E-01      3.0219E+02      1.6248E+02      3.2521E+02
      1.2589E-01      3.3907E+02      2.1522E+02      3.6964E+02
      1.5849E-01      3.8044E+02      2.8798E+02      4.2166E+02
      1.9953E-01      4.2686E+02      3.8878E+02      4.8325E+02
      2.5119E-01      4.7895E+02      5.2899E+02      5.5727E+02
      3.1623E-01      5.3739E+02      6.9052E+02      6.4389E+02
      3.9811E-01      6.0296E+02      6.7269E+02      6.5089E+02
      5.0119E-01      6.1670E+02      6.2284E+02      6.1030E+02
      6.3096E-01      5.6039E+02      5.6045E+02      5.5293E+02
      7.9433E-01      4.9469E+02      4.9469E+02      4.9015E+02
      1.0000E+00      4.3070E+02      4.3070E+02      4.2793E+02
      1.2589E+00      3.7117E+02      3.7117E+02      3.6947E+02
      1.5849E+00      3.1734E+02      3.1734E+02      3.1629E+02
      1.9953E+00      2.6961E+02      2.6961E+02      2.6896E+02
      2.5119E+00      2.2788E+02      2.2788E+02      2.2748E+02
      3.1623E+00      1.9179E+02      1.9179E+02      1.9153E+02
      3.9811E+00      1.6082E+02      1.6082E+02      1.6066E+02
      5.0119E+00      1.3443E+02      1.3443E+02      1.3433E+02
      6.3096E+00      1.1206E+02      1.1206E+02      1.1200E+02
      7.9433E+00      9.3186E+01      9.3186E+01      9.3147E+01
      1.0000E+01      7.7324E+01      7.7324E+01      7.7300E+01
      1.2589E+01      6.4038E+01      6.4038E+01      6.4023E+01
      1.5849E+01      5.2941E+01      5.2941E+01      5.2932E+01
      1.9953E+01      4.3697E+01      4.3697E+01      4.3691E+01
      2.5119E+01      3.6015E+01      3.6015E+01      3.6011E+01
      3.1623E+01      2.9642E+01      2.9642E+01      2.9640E+01
      3.9811E+01      2.4367E+01      2.4367E+01      2.4366E+01
      5.0119E+01      2.0008E+01      2.0008E+01      2.0007E+01
      6.3096E+01      1.6410E+01      1.6410E+01      1.6410E+01
      7.9433E+01      1.3446E+01      1.3446E+01      1.3446E+01
      1.0000E+02      1.1007E+01      1.1007E+01      1.1007E+01
      1.2589E+02      9.0023E+00      9.0023E+00      9.0022E+00
      1.5849E+02      7.3566E+00      7.3566E+00      7.3565E+00
      1.9953E+02      6.0070E+00      6.0070E+00      6.0070E+00
      2.5119E+02      4.9014E+00      4.9014E+00      4.9013E+00
      3.1623E+02      3.9964E+00      3.9964E+00      3.9964E+00
      3.9811E+02      3.2563E+00      3.2563E+00      3.2563E+00
      5.0119E+02      2.6517E+00      2.6517E+00      2.6516E+00
      6.3096E+02      2.1579E+00      2.1579E+00      2.1579E+00
      7.9433E+02      1.7552E+00      1.7552E+00      1.7552E+00
      1.0000E+03      1.4268E+00      1.4268E+00      1.4268E+00
