# run time = 18855.86696600914 s
# Te = 10 [eV]
# ne = 6.000000e+23 [1/cc]
# mu = 0.783 [au]
# v[a.u.]    stopping number[a.u.]
1.000000000000000021e-03 -1.762649061038417573e-15
1.222020202020202145e-01 6.534839781413532585e-07
2.434040404040404282e-01 5.799977751791413191e-05
3.646060606060606557e-01 7.488125352077022257e-04
4.858080808080808555e-01 4.250723327282829832e-03
6.070101010101011108e-01 1.526717333698967075e-02
7.282121212121213105e-01 4.084176985610876026e-02
8.494141414141415103e-01 8.863870128230055823e-02
9.706161616161617101e-01 1.645517029278579790e-01
1.091818181818181799e+00 2.718139834889364836e-01
1.213020202020202110e+00 4.119181124487171775e-01
1.334222222222222198e+00 5.861302674336378304e-01
1.455424242424242509e+00 7.936454833794075459e-01
1.576626262626262598e+00 1.035312028400231954e+00
1.697828282828282909e+00 1.308194865175505761e+00
1.819030303030302997e+00 1.608945287900988674e+00
1.940232323232323308e+00 1.930064858261679950e+00
2.061434343434343397e+00 2.256351759384734201e+00
2.182636363636363708e+00 2.575153027227590208e+00
2.303838383838384019e+00 2.874500965845114830e+00
2.425040404040404329e+00 3.150072911183662061e+00
2.546242424242424196e+00 3.401747656889203775e+00
2.667444444444444507e+00 3.631415502618904334e+00
2.788646464646464818e+00 3.842825882387971959e+00
2.909848484848485128e+00 4.039373097604954665e+00
3.031050505050505439e+00 4.211174527822813651e+00
3.152252525252525306e+00 4.392547544896993728e+00
3.273454545454545617e+00 4.548204545730352599e+00
3.394656565656565927e+00 4.700864879425370013e+00
3.515858585858586238e+00 4.838483781303315467e+00
3.637060606060606105e+00 4.975211024206608990e+00
3.758262626262626416e+00 5.105327310838234212e+00
3.879464646464646727e+00 5.228247741324644871e+00
4.000666666666667481e+00 5.348457201616072076e+00
4.121868686868687348e+00 5.467611120326361096e+00
4.243070707070708103e+00 5.574020801858940111e+00
4.364272727272727970e+00 5.680941130443289744e+00
4.485474747474747836e+00 5.784079620250237141e+00
4.606676767676768591e+00 5.884305324950466876e+00
4.727878787878788458e+00 5.983685625980271539e+00
4.849080808080809213e+00 6.072334493161658742e+00
4.970282828282829080e+00 6.163219230604939369e+00
5.091484848484848946e+00 6.255852188860613339e+00
5.212686868686869701e+00 6.339790510924913747e+00
5.333888888888889568e+00 6.421765332735419385e+00
5.455090909090910323e+00 6.506559215565642873e+00
5.576292929292930189e+00 6.587111176463752216e+00
5.697494949494950056e+00 6.663791916877970678e+00
5.818696969696970811e+00 6.738140737798848257e+00
5.939898989898990678e+00 6.817172424898964245e+00
6.061101010101011433e+00 6.890172249868165011e+00
6.182303030303031299e+00 6.961460151917613359e+00
6.303505050505051166e+00 7.027155266269055289e+00
6.424707070707071921e+00 7.095634896768111766e+00
6.545909090909091788e+00 7.159609778001724933e+00
6.667111111111111654e+00 7.224218176790621726e+00
6.788313131313132409e+00 7.288709842692806085e+00
6.909515151515152276e+00 7.350173768798968332e+00
7.030717171717173031e+00 7.413149450752900549e+00
7.151919191919192897e+00 7.475081405517144617e+00
7.273121212121212764e+00 7.534393993159526737e+00
7.394323232323233519e+00 7.588271415841472134e+00
7.515525252525253386e+00 7.651451149753246916e+00
7.636727272727274141e+00 7.702487155332464752e+00
7.757929292929294007e+00 7.763277263941333217e+00
7.879131313131313874e+00 7.819225018636977609e+00
8.000333333333333741e+00 7.867867119696959399e+00
8.121535353535353607e+00 7.925947850252500260e+00
8.242737373737373474e+00 7.971193796253676744e+00
8.363939393939393341e+00 8.032660061819466790e+00
8.485141414141414984e+00 8.080433905966167174e+00
8.606343434343434851e+00 8.134935248239852257e+00
8.727545454545454717e+00 8.172630093618924008e+00
8.848747474747474584e+00 8.218061475406571503e+00
8.969949494949494451e+00 8.265532956815098586e+00
9.091151515151516094e+00 8.315538604161888614e+00
9.212353535353535960e+00 8.368231105003602011e+00
9.333555555555555827e+00 8.403799823012306547e+00
9.454757575757575694e+00 8.468646823736532880e+00
9.575959595959595561e+00 8.497674273883729867e+00
9.697161616161617204e+00 8.550237325011126543e+00
9.818363636363637070e+00 8.578101177673509881e+00
9.939565656565656937e+00 8.620546243091865790e+00
1.006076767676767680e+01 8.662913750600139906e+00
1.018196969696969667e+01 8.704559644988837164e+00
1.030317171717171831e+01 8.746324266950409765e+00
1.042437373737373818e+01 8.790647206754133691e+00
1.054557575757575805e+01 8.830482115759679118e+00
1.066677777777777791e+01 8.878078170356786813e+00
1.078797979797979778e+01 8.904838393319099765e+00
1.090918181818181942e+01 8.954889986108492295e+00
1.103038383838383929e+01 8.999296367914428885e+00
1.115158585858585916e+01 9.022895876518415292e+00
1.127278787878787902e+01 9.070838686746343527e+00
1.139398989898989889e+01 9.112539600467043144e+00
1.151519191919192053e+01 9.148230468190565290e+00
1.163639393939394040e+01 9.183867318486321096e+00
1.175759595959596027e+01 9.201889687216006308e+00
1.187879797979798013e+01 9.251365379006051270e+00
1.200000000000000000e+01 9.272632485846136419e+00
