# run time = 5605.2930409908295 s
# Te = 10 [eV]
# ne = 6.000000e+23 [1/cc]
# mu = 0.783 [au]
# v[a.u.]    stopping number[a.u.]
0.000000000000000000e+00 0.000000000000000000e+00
1.000000000000000021e-03 0.000000000000000000e+00
1.222020202020202145e-01 6.578976697392266135e-07
2.434040404040404282e-01 5.333097711037675348e-05
3.646060606060606557e-01 6.238134467509165058e-04
4.858080808080808555e-01 3.413642263956989231e-03
6.070101010101011108e-01 1.224706428561476296e-02
7.282121212121213105e-01 3.312203309410658575e-02
8.494141414141415103e-01 7.287284286945965028e-02
9.706161616161617101e-01 1.370041605066389390e-01
1.091818181818181799e+00 2.291595577603610101e-01
1.213020202020202110e+00 3.514975193273581766e-01
1.334222222222222198e+00 5.051223946661704822e-01
1.455424242424242509e+00 6.901323390134411762e-01
1.576626262626262598e+00 9.054440830674470586e-01
1.697828282828282909e+00 1.148082043952523001e+00
1.819030303030302997e+00 1.412920287510309958e+00
1.940232323232323308e+00 1.691346416241073847e+00
2.061434343434343397e+00 1.972784960910101582e+00
2.182636363636363708e+00 2.246122438401557009e+00
2.303838383838384019e+00 2.502292311344954889e+00
2.425040404040404329e+00 2.737516515734275124e+00
2.546242424242424196e+00 2.951393207531309848e+00
2.667444444444444507e+00 3.145888897694988362e+00
2.788646464646464818e+00 3.323797145470838821e+00
2.909848484848485128e+00 3.487134778846712635e+00
3.031050505050505439e+00 3.638429809254905667e+00
3.152252525252525306e+00 3.779807116028343739e+00
3.273454545454545617e+00 3.912576764478804758e+00
3.394656565656565927e+00 4.037354836703599403e+00
3.515858585858586238e+00 4.155703007543924521e+00
3.637060606060606105e+00 4.268055132247837946e+00
3.758262626262626416e+00 4.375046883595828717e+00
3.879464646464646727e+00 4.477274756733732985e+00
4.000666666666667481e+00 4.575453674443939356e+00
4.121868686868687348e+00 4.669460302025452592e+00
4.243070707070708103e+00 4.759600600805379500e+00
4.364272727272727970e+00 4.846430128356711720e+00
4.485474747474747836e+00 4.929977934921134342e+00
4.606676767676768591e+00 5.011343652123391834e+00
4.727878787878788458e+00 5.090017221442022510e+00
4.849080808080809213e+00 5.167612681332999891e+00
4.970282828282829080e+00 5.241292843231621035e+00
5.091484848484848946e+00 5.312564351139718255e+00
5.212686868686869701e+00 5.384452387191771550e+00
5.333888888888889568e+00 5.451973577794173131e+00
5.455090909090910323e+00 5.517810002626036159e+00
5.576292929292930189e+00 5.582011675489750857e+00
5.697494949494950056e+00 5.644036664735327946e+00
5.818696969696970811e+00 5.706999018402250101e+00
5.939898989898990678e+00 5.766519953234625184e+00
6.061101010101011433e+00 5.825005936218495606e+00
6.182303030303031299e+00 5.882300268761552431e+00
6.303505050505051166e+00 5.938345356062749936e+00
6.424707070707071921e+00 5.992564021679988251e+00
6.545909090909091788e+00 6.045182620674762752e+00
6.667111111111111654e+00 6.098084209921280419e+00
6.788313131313132409e+00 6.150976339298634521e+00
6.909515151515152276e+00 6.201065897313566389e+00
7.030717171717173031e+00 6.249848019437456159e+00
7.151919191919192897e+00 6.297682510161662250e+00
7.273121212121212764e+00 6.345781689616003085e+00
7.394323232323233519e+00 6.391650569662743919e+00
7.515525252525253386e+00 6.436717177979834226e+00
7.636727272727274141e+00 6.481092461866253096e+00
7.757929292929294007e+00 6.525713375861837307e+00
7.879131313131313874e+00 6.568740199508277477e+00
8.000333333333333741e+00 6.612023220932566225e+00
8.121535353535353607e+00 6.653618966356853015e+00
8.242737373737373474e+00 6.696019376216926666e+00
8.363939393939393341e+00 6.736117632753368945e+00
8.485141414141414984e+00 6.775614818547398777e+00
8.606343434343434851e+00 6.815655392370441490e+00
8.727545454545454717e+00 6.854083338044197227e+00
8.848747474747474584e+00 6.892002634232568425e+00
8.969949494949494451e+00 6.929883251233284192e+00
9.091151515151516094e+00 6.967054509862893319e+00
9.212353535353535960e+00 7.003121107199927309e+00
9.333555555555555827e+00 7.038822901805983356e+00
9.454757575757575694e+00 7.073918469668358355e+00
9.575959595959595561e+00 7.108425163873896224e+00
9.697161616161617204e+00 7.142555396943855328e+00
9.818363636363637070e+00 7.176383312202034404e+00
9.939565656565656937e+00 7.209483835432846099e+00
1.006076767676767680e+01 7.242521378224273221e+00
1.018196969696969667e+01 7.275103635461289464e+00
1.030317171717171831e+01 7.307056687197444056e+00
1.042437373737373818e+01 7.338757619492350948e+00
1.054557575757575805e+01 7.368487288492793219e+00
1.066677777777777791e+01 7.399082129473952385e+00
1.078797979797979778e+01 7.429544391212836274e+00
1.090918181818181942e+01 7.459413553453043022e+00
1.103038383838383929e+01 7.488976086025943779e+00
1.115158585858585916e+01 7.518476515422372941e+00
1.127278787878787902e+01 7.547705629304349628e+00
1.139398989898989889e+01 7.576906137011303777e+00
1.151519191919192053e+01 7.606098328700548805e+00
1.163639393939394040e+01 7.634110119074092538e+00
1.175759595959596027e+01 7.661992345312363284e+00
1.187879797979798013e+01 7.689672938295597504e+00
1.200000000000000000e+01 7.716783091368746739e+00
