# run time = 12116.15051817894 s
# Te = 2 [eV]
# ne = 2.000000e+23 [1/cc]
# mu = 0.437 [au]
# v[a.u.]    stopping number[a.u.]
5.000000000000000104e-03 6.777599504565612731e-08
1.261616161616161413e-01 1.055528084462235405e-03
2.473232323232323060e-01 7.517841631498054303e-03
3.684848484848484707e-01 2.317065183481466575e-02
4.896464646464646076e-01 4.863044542467889753e-02
6.108080808080808000e-01 8.867557708466809741e-02
7.319696969696969369e-01 1.386868180095050529e-01
8.531313131313130738e-01 1.992688834499831696e-01
9.742929292929292107e-01 2.692547537449860862e-01
1.095454545454545237e+00 3.467213692443874007e-01
1.216616161616161484e+00 4.299584897042781906e-01
1.337777777777777510e+00 5.172701318554848715e-01
1.458939393939393758e+00 6.059894214050782768e-01
1.580101010101009784e+00 6.953972106576211676e-01
1.701262626262626032e+00 7.837519053028049187e-01
1.822424242424242058e+00 8.707056816091427454e-01
1.943585858585858306e+00 9.546971486871667079e-01
2.064747474747474332e+00 1.036525577658329977e+00
2.185909090909090580e+00 1.115269633555855844e+00
2.307070707070706828e+00 1.190611030853679919e+00
2.428232323232323076e+00 1.262736051193267039e+00
2.549393939393938879e+00 1.332527263339708945e+00
2.670555555555555127e+00 1.399929265107792364e+00
2.791717171717171375e+00 1.462417562905078627e+00
2.912878787878787623e+00 1.525941688318769529e+00
3.034040404040403871e+00 1.584254292905055594e+00
3.155202020202019675e+00 1.638849844374054454e+00
3.276363636363635923e+00 1.694206521079371086e+00
3.397525252525252171e+00 1.743733362514033880e+00
3.518686868686868419e+00 1.790733910068204704e+00
3.639848484848484222e+00 1.839458936798701316e+00
3.761010101010100470e+00 1.885612248833940630e+00
3.882171717171716718e+00 1.931445861712125289e+00
4.003333333333332966e+00 1.971787587641357087e+00
4.124494949494948770e+00 2.014741133308539212e+00
4.245656565656565462e+00 2.058278586849187075e+00
4.366818181818181266e+00 2.089190315991900970e+00
4.487979797979797070e+00 2.124753758787842894e+00
4.609141414141413762e+00 2.161960866229710732e+00
4.730303030303029566e+00 2.191322559798959624e+00
4.851464646464646258e+00 2.223861806118866635e+00
4.972626262626262061e+00 2.255450969138047768e+00
5.093787878787877865e+00 2.289962695431660755e+00
5.214949494949494557e+00 2.328257285116498210e+00
5.336111111111110361e+00 2.356092248315196702e+00
5.457272727272727053e+00 2.385955447470158308e+00
5.578434343434342857e+00 2.418096332534465986e+00
5.699595959595958661e+00 2.441420776214695110e+00
5.820757575757575353e+00 2.470609121735257041e+00
5.941919191919191157e+00 2.496160447707283403e+00
6.063080808080807849e+00 2.524236344258120379e+00
6.184242424242423652e+00 2.549911828527380298e+00
6.305404040404039456e+00 2.511742047531747790e+00
6.426565656565656148e+00 2.592901346493861503e+00
6.547727272727271952e+00 2.508337037259383617e+00
6.668888888888887756e+00 2.497959453721964707e+00
6.790050505050504448e+00 2.622694900393422124e+00
6.911212121212120252e+00 2.624427431682977652e+00
7.032373737373736944e+00 2.544726135447920701e+00
7.153535353535352748e+00 2.480151613754732143e+00
7.274696969696968551e+00 2.520411588131014291e+00
7.395858585858585243e+00 2.574803556217686751e+00
7.517020202020201047e+00 2.537946173877927869e+00
7.638181818181817739e+00 2.543964053843036144e+00
7.759343434343433543e+00 2.497581921649383307e+00
7.880505050505049347e+00 2.662556618767522476e+00
8.001666666666666927e+00 2.540280306072085992e+00
8.122828282828283619e+00 2.637040736224840920e+00
8.243989898989898535e+00 2.612003542169402337e+00
8.365151515151515227e+00 2.552453633063823890e+00
8.486313131313131919e+00 2.611747188413043652e+00
8.607474747474746835e+00 2.600889752285150625e+00
8.728636363636363527e+00 2.604655199046211678e+00
8.849797979797980219e+00 2.486312833050329463e+00
8.970959595959595134e+00 2.514783315120677543e+00
9.092121212121211826e+00 2.654438146998552295e+00
9.213282828282828518e+00 2.611293269942752460e+00
9.334444444444445210e+00 2.639037686561157336e+00
9.455606060606060126e+00 2.503358944505011952e+00
9.576767676767676818e+00 2.680567560426058815e+00
9.697929292929293510e+00 2.546777369722969642e+00
9.819090909090908426e+00 2.573860787845133391e+00
9.940252525252525118e+00 2.639550525714413620e+00
1.006141414141414181e+01 2.679570262282515269e+00
1.018257575757575673e+01 2.510332390261369007e+00
1.030373737373737342e+01 2.545356537084661586e+00
1.042489898989899011e+01 2.516941720842611030e+00
1.054606060606060502e+01 2.684757369200670318e+00
1.066722222222222172e+01 2.698596317179807969e+00
1.078838383838383841e+01 2.572637292152562871e+00
1.090954545454545510e+01 2.526414535319930543e+00
1.103070707070707002e+01 2.572037188645171391e+00
1.115186868686868671e+01 2.501065481459359141e+00
1.127303030303030340e+01 2.636926553865162948e+00
1.139419191919191832e+01 2.562895851097786615e+00
1.151535353535353501e+01 2.547915316795089868e+00
1.163651515151515170e+01 2.555690279981015056e+00
1.175767676767676662e+01 2.561356186060806728e+00
1.187883838383838331e+01 2.680898979383123937e+00
1.200000000000000000e+01 2.634947751998371945e+00
