# run time = 16530.079788923264 s
# Te = 2 [eV]
# ne = 2000000000000000000000000 [1/cc]
# mu = 2.129 [au]
# v[a.u.]    stopping number[a.u.]
1.000000000000000021e-03 0.000000000000000000e+00
1.222020202020202145e-01 5.487294451627705256e-07
2.434040404040404282e-01 3.826998966287705552e-05
3.646060606060606557e-01 4.686895024647388139e-04
4.858080808080808555e-01 2.717520044658446390e-03
6.070101010101011108e-01 1.034429702259332534e-02
7.282121212121213105e-01 3.003662742757860771e-02
8.494141414141415103e-01 7.210224781939032768e-02
9.706161616161617101e-01 1.502446315791862719e-01
1.091818181818181799e+00 2.797832430372962920e-01
1.213020202020202110e+00 4.719985030856115316e-01
1.334222222222222198e+00 7.307042294789340975e-01
1.455424242424242509e+00 1.054922857607361708e+00
1.576626262626262598e+00 1.441661903082044116e+00
1.697828282828282909e+00 1.891307313228667297e+00
1.819030303030302997e+00 2.400335594459095390e+00
1.940232323232323308e+00 2.969285171475473106e+00
2.061434343434343397e+00 3.593325292024026396e+00
2.182636363636363708e+00 4.270103424464787523e+00
2.303838383838384019e+00 4.991744411135504933e+00
2.425040404040404329e+00 5.746509653046150135e+00
2.546242424242424196e+00 6.519067661327502705e+00
2.667444444444444507e+00 7.286743588681546591e+00
2.788646464646464818e+00 8.034788635903947096e+00
2.909848484848485128e+00 8.749771452472755229e+00
3.031050505050505439e+00 9.425602231960853672e+00
3.152252525252525306e+00 1.006567636760687456e+01
3.273454545454545617e+00 1.066944612862834418e+01
3.394656565656565927e+00 1.124267193428595313e+01
3.515858585858586238e+00 1.177856723336744338e+01
3.637060606060606105e+00 1.228984612432149603e+01
3.758262626262626416e+00 1.277717030223412742e+01
3.879464646464646727e+00 1.324472534582009686e+01
4.000666666666667481e+00 1.368696969164411925e+01
4.121868686868687348e+00 1.411730974745766964e+01
4.243070707070708103e+00 1.452377364919437497e+01
4.364272727272727970e+00 1.492232573103860460e+01
4.485474747474747836e+00 1.530226072244312796e+01
4.606676767676768591e+00 1.567282445333732710e+01
4.727878787878788458e+00 1.602352268495670273e+01
4.849080808080809213e+00 1.636355374491793313e+01
4.970282828282829080e+00 1.670795279476614681e+01
5.091484848484848946e+00 1.702701245683500986e+01
5.212686868686869701e+00 1.733437077234531998e+01
5.333888888888889568e+00 1.764833127692508086e+01
5.455090909090910323e+00 1.793586930878035091e+01
5.576292929292930189e+00 1.823142096193719652e+01
5.697494949494950056e+00 1.851579733114420634e+01
5.818696969696970811e+00 1.878333511459922178e+01
5.939898989898990678e+00 1.904949444321248109e+01
6.061101010101011433e+00 1.931524143817260253e+01
6.182303030303031299e+00 1.956649264696702772e+01
6.303505050505051166e+00 1.981890570345233016e+01
6.424707070707071921e+00 2.005926520109319355e+01
6.545909090909091788e+00 2.031208324956762112e+01
6.667111111111111654e+00 2.053519460504403327e+01
6.788313131313132409e+00 2.075364220447297114e+01
6.909515151515152276e+00 2.100087015999037021e+01
7.030717171717173031e+00 2.121256479318500965e+01
7.151919191919192897e+00 2.142920461680460420e+01
7.273121212121212764e+00 2.162210079615480396e+01
7.394323232323233519e+00 2.184194766749657290e+01
7.515525252525253386e+00 2.203389916542186810e+01
7.636727272727274141e+00 2.223003927820226977e+01
7.757929292929294007e+00 2.244542056827437548e+01
7.879131313131313874e+00 2.266543538815057346e+01
8.000333333333333741e+00 2.283512526970366707e+01
8.121535353535353607e+00 2.303272098951871172e+01
8.242737373737373474e+00 2.320876183215769473e+01
8.363939393939393341e+00 2.338981355263853601e+01
8.485141414141414984e+00 2.357724975796291744e+01
8.606343434343434851e+00 2.374594369879214639e+01
8.727545454545454717e+00 2.391976495644827594e+01
8.848747474747474584e+00 2.409174727420820972e+01
8.969949494949494451e+00 2.426083631485808567e+01
9.091151515151516094e+00 2.444474141919751631e+01
9.212353535353535960e+00 2.457233446140482158e+01
9.333555555555555827e+00 2.473524747528592727e+01
9.454757575757575694e+00 2.490734386066587192e+01
9.575959595959595561e+00 2.505604649897705727e+01
9.697161616161617204e+00 2.522649285948516251e+01
9.818363636363637070e+00 2.537913784549208174e+01
9.939565656565656937e+00 2.556718310277247852e+01
1.006076767676767680e+01 2.567892642039752005e+01
1.018196969696969667e+01 2.582728365316521746e+01
1.030317171717171831e+01 2.598852387025314670e+01
1.042437373737373818e+01 2.610612144731457818e+01
1.054557575757575805e+01 2.625171986693636939e+01
1.066677777777777791e+01 2.640127086997718919e+01
1.078797979797979778e+01 2.652094533079571193e+01
1.090918181818181942e+01 2.665660092842515994e+01
1.103038383838383929e+01 2.681164499788145505e+01
1.115158585858585916e+01 2.693946901125230653e+01
1.127278787878787902e+01 2.706429094995761986e+01
1.139398989898989889e+01 2.719546908517029138e+01
1.151519191919192053e+01 2.732995623132853780e+01
1.163639393939394040e+01 2.747174391730435516e+01
1.175759595959596027e+01 2.758815638387592273e+01
1.187879797979798013e+01 2.774313458774118857e+01
1.200000000000000000e+01 2.788133529024197443e+01
