# run time = 5448.072929382324 s
# Te = 10 [eV]
# ne = 6.000000e+23 [1/cc]
# mu = 0.783 [au]
# v[a.u.]    stopping number[a.u.]
0.000000000000000000e+00 0.000000000000000000e+00
1.000000000000000021e-03 0.000000000000000000e+00
1.222020202020202145e-01 6.534835987887190446e-07
2.434040404040404282e-01 5.132199157993479161e-05
3.646060606060606557e-01 5.785458852803854277e-04
4.858080808080808555e-01 3.051423039712224117e-03
6.070101010101011108e-01 1.060884331208358962e-02
7.282121212121213105e-01 2.816396486317215148e-02
8.494141414141415103e-01 6.161337140551909064e-02
9.706161616161617101e-01 1.164948064283098661e-01
1.091818181818181799e+00 1.971999367605092868e-01
1.213020202020202110e+00 3.069640303420205774e-01
1.334222222222222198e+00 4.482563935255328147e-01
1.455424242424242509e+00 6.226751240972006052e-01
1.576626262626262598e+00 8.306296945987715619e-01
1.697828282828282909e+00 1.070885680718260957e+00
1.819030303030302997e+00 1.338579516962757676e+00
1.940232323232323308e+00 1.625823354350117933e+00
2.061434343434343397e+00 1.919999822053048977e+00
2.182636363636363708e+00 2.207706490999049809e+00
2.303838383838384019e+00 2.477568268353073311e+00
2.425040404040404329e+00 2.724458376943998505e+00
2.546242424242424196e+00 2.947771311549857831e+00
2.667444444444444507e+00 3.149608250242013074e+00
2.788646464646464818e+00 3.333320849192991098e+00
2.909848484848485128e+00 3.501728030328420171e+00
3.031050505050505439e+00 3.656753166909820774e+00
3.152252525252525306e+00 3.801214060796338057e+00
3.273454545454545617e+00 3.936573904963916348e+00
3.394656565656565927e+00 4.063600723402212012e+00
3.515858585858586238e+00 4.183862538672738829e+00
3.637060606060606105e+00 4.292844651511773968e+00
3.758262626262626416e+00 4.401345967878811827e+00
3.879464646464646727e+00 4.504701331092228145e+00
4.000666666666667481e+00 4.603591200128451355e+00
4.121868686868687348e+00 4.697803848121325565e+00
4.243070707070708103e+00 4.788683990274505753e+00
4.364272727272727970e+00 4.877179423057407703e+00
4.485474747474747836e+00 4.961260314317153863e+00
4.606676767676768591e+00 5.043099956161407604e+00
4.727878787878788458e+00 5.122195284817089522e+00
4.849080808080809213e+00 5.200154099065273705e+00
4.970282828282829080e+00 5.274164415512404780e+00
5.091484848484848946e+00 5.346086411271639527e+00
5.212686868686869701e+00 5.418283681234859372e+00
5.333888888888889568e+00 5.486050541121579194e+00
5.455090909090910323e+00 5.552161401750105085e+00
5.576292929292930189e+00 5.616584011819955258e+00
5.697494949494950056e+00 5.678890598341129525e+00
5.818696969696970811e+00 5.739515314158611936e+00
5.939898989898990678e+00 5.799220127323465590e+00
6.061101010101011433e+00 5.857870227477152802e+00
6.182303030303031299e+00 5.915314666888687789e+00
6.303505050505051166e+00 5.971528386984362946e+00
6.424707070707071921e+00 6.025980055129233293e+00
6.545909090909091788e+00 6.079065906524710350e+00
6.667111111111111654e+00 6.132271505482323803e+00
6.788313131313132409e+00 6.184837494368677469e+00
6.909515151515152276e+00 6.236952854659449486e+00
7.030717171717173031e+00 6.285620447527678678e+00
7.151919191919192897e+00 6.335185496335620670e+00
7.273121212121212764e+00 6.383593217741652559e+00
7.394323232323233519e+00 6.429802270644032980e+00
7.515525252525253386e+00 6.475066291554518294e+00
7.636727272727274141e+00 6.519584181649322296e+00
7.757929292929294007e+00 6.564050327631590243e+00
7.879131313131313874e+00 6.607355090905479678e+00
8.000333333333333741e+00 6.650833060442194800e+00
8.121535353535353607e+00 6.692550006198320744e+00
8.242737373737373474e+00 6.733251026826121866e+00
8.363939393939393341e+00 6.775145797100056377e+00
8.485141414141414984e+00 6.814752040024688817e+00
8.606343434343434851e+00 6.853816769185004709e+00
8.727545454545454717e+00 6.892269801028004572e+00
8.848747474747474584e+00 6.930246949842094217e+00
8.969949494949494451e+00 6.968169008716404100e+00
9.091151515151516094e+00 7.005443709793434337e+00
9.212353535353535960e+00 7.041513884035900617e+00
9.333555555555555827e+00 7.077246940839293288e+00
9.454757575757575694e+00 7.112467728832247538e+00
9.575959595959595561e+00 7.147389342144975011e+00
9.697161616161617204e+00 7.181568633281010250e+00
9.818363636363637070e+00 7.215324727905297664e+00
9.939565656565656937e+00 7.248550655564727663e+00
1.006076767676767680e+01 7.281663709564085707e+00
1.018196969696969667e+01 7.314254402651529929e+00
1.030317171717171831e+01 7.346130302179535221e+00
1.042437373737373818e+01 7.377867016836877845e+00
1.054557575757575805e+01 7.407600705203028824e+00
1.066677777777777791e+01 7.438259251027237617e+00
1.078797979797979778e+01 7.468697376165464696e+00
1.090918181818181942e+01 7.498819189208917102e+00
1.103038383838383929e+01 7.528526494757637799e+00
1.115158585858585916e+01 7.557852371901910615e+00
1.127278787878787902e+01 7.587100974149882049e+00
1.139398989898989889e+01 7.616291409314802863e+00
1.151519191919192053e+01 7.644630938751315163e+00
1.163639393939394040e+01 7.672668350071280230e+00
1.175759595959596027e+01 7.700490203664842603e+00
1.187879797979798013e+01 7.728312221305936980e+00
1.200000000000000000e+01 7.755428252936064304e+00
