# run time = 3362.363219022751 s
# Te = 2 [eV]
# ne = 2.000000e+23 [1/cc]
# mu = 0.437 [au]
# v[a.u.]    stopping number[a.u.]
0.000000000000000000e+00 0.000000000000000000e+00
1.000000000000000021e-03 0.000000000000000000e+00
2.458775510204081749e-01 5.568119461752068719e-03
4.907551020408163489e-01 4.284211393254493128e-02
7.356326530612244952e-01 1.374253808587663217e-01
9.805102040816326969e-01 3.084901335077036011e-01
1.225387755102040677e+00 5.615979038815231972e-01
1.470265306122448878e+00 8.432617271329848618e-01
1.715142857142857080e+00 1.074772854594799654e+00
1.960020408163265282e+00 1.259870877274184675e+00
2.204897959183673262e+00 1.415418502910115617e+00
2.449775510204081463e+00 1.549571851790351618e+00
2.694653061224489665e+00 1.667741591431005421e+00
2.939530612244897867e+00 1.775004011272831583e+00
3.184408163265306069e+00 1.871799198408042431e+00
3.429285714285714270e+00 1.959561090506193093e+00
3.674163265306122472e+00 2.041559214285743273e+00
3.919040816326530674e+00 2.117692247384684201e+00
4.163918367346939320e+00 2.189164975868920671e+00
4.408795918367347078e+00 2.256270377499445257e+00
4.653673469387755723e+00 2.318324061348951748e+00
4.898551020408163481e+00 2.378108252954234558e+00
5.143428571428572127e+00 2.434300110949205287e+00
5.388306122448979885e+00 2.487420704629156099e+00
5.633183673469388530e+00 2.538895883116059959e+00
5.878061224489796288e+00 2.588795992529372203e+00
6.122938775510204934e+00 2.635323978293938829e+00
6.367816326530612692e+00 2.679737670077017686e+00
6.612693877551021338e+00 2.722563536560857145e+00
6.857571428571429095e+00 2.763163555065558885e+00
7.102448979591837741e+00 2.802507865911761264e+00
7.347326530612245499e+00 2.840946171080001026e+00
7.592204081632654145e+00 2.878343934156004202e+00
7.837081632653061902e+00 2.914425548662981758e+00
8.081959183673468772e+00 2.948668452896019865e+00
8.326836734693877418e+00 2.982423694035529760e+00
8.571714285714286063e+00 3.014765378124528272e+00
8.816591836734692933e+00 3.042498725772916135e+00
9.061469387755101579e+00 3.073419344616679982e+00
9.306346938775510225e+00 3.102860502651251018e+00
9.551224489795918871e+00 3.131401638162430778e+00
9.796102040816325740e+00 3.159106919764385513e+00
1.004097959183673439e+01 3.185962232053232590e+00
1.028585714285714303e+01 3.211545113602089607e+00
1.053073469387755168e+01 3.236386726845180473e+00
1.077561224489795855e+01 3.260770767002938442e+00
1.102048979591836719e+01 3.284230958223483210e+00
1.126536734693877584e+01 3.306163221675736619e+00
1.151024489795918448e+01 3.327280579773165492e+00
1.175512244897959135e+01 3.347264927308517990e+00
1.200000000000000000e+01 3.366877869705431348e+00
